Depth [m],Area [m2]
0,3419353
0.01,3419196.999
0.02,3419024.101
0.03,3418831.399
0.04,3418613
0.05,3418435
0.06,3418267.3
0.07,3418058.4
0.08,3417852.2
0.09,3417663.4
0.1,3417481
0.11,3417264.7
0.12,3417055.5
0.13,3416846.001
0.14,3416658.9
0.15,3416470
0.16,3416279
0.17,3416082.1
0.18,3415873.6
0.19,3415650
0.2,3415671.897
0.21,3414975.303
0.22,3415005.701
0.23,3414783.8
0.24,3414544.5
0.25,3414327.5
0.26,3414126.599
0.27,3413911.101
0.28,3413661.899
0.29,3413443
0.3,3413234.3
0.31,3412983.8
0.32,3412764.3
0.33,3412527.6
0.34,3412301.7
0.35,3412069.8
0.36,3411867.3
0.37,3411638
0.38,3411414.801
0.39,3411193.6
0.4,3410974.4
0.41,3410773.8
0.42,3410542.7
0.43,3410315.5
0.44,3410082.7
0.45,3409868.3
0.46,3409654.7
0.47,3409417.701
0.48,3409182.7
0.49,3408936.5
0.5,3408695.9
0.51,3408474.599
0.52,3408228.901
0.53,3408001.399
0.54,3407796.2
0.55,3407552.7
0.56,3407324
0.57,3407103.5
0.58,3406916.5
0.59,3406710.5
0.6,3406470.8
0.61,3406241.5
0.62,3406023.6
0.63,3405805.901
0.64,3405583.1
0.65,3405370.7
0.66,3405146.7
0.67,3404924.3
0.68,3404687.3
0.69,3404454.8
0.7,3404204.1
0.71,3403984.8
0.72,3403735.301
0.73,3403496
0.74,3403241.6
0.75,3403046.601
0.76,3402810.399
0.77,3402570.601
0.78,3402326.999
0.79,3402069.3
0.8,3401835.7
0.81,3401600
0.82,3401377.8
0.83,3401148.8
0.84,3400919.8
0.85,3400697.8
0.86,3400451.2
0.87,3400211.5
0.88,3399977.3
0.89,3399735.8
0.9,3399480.5
0.91,3399234.6
0.92,3398994.8
0.93,3398783.8
0.94,3398540
0.95,3398305.4
0.96,3398104.4
0.97,3397864.201
0.98,3397622.3
0.99,3397408.2
1,3397145.4
1.01,3396916.299
1.02,3396710.301
1.03,3396470.299
1.04,3396221.4
1.05,3395986.2
1.06,3395760.5
1.07,3395508.9
1.08,3395285.8
1.09,3395028.5
1.1,3394782.5
1.11,3394560.9
1.12,3394310.6
1.13,3394058.4
1.14,3393817
1.15,3393588
1.16,3393347.8
1.17,3393089.4
1.18,3392833.2
1.19,3392595.5
1.2,3392365.4
1.21,3392138.7
1.22,3391930.2
1.23,3391726.8
1.24,3391550.7
1.25,3391363.1
1.26,3391164.699
1.27,3390987.401
1.28,3390825.399
1.29,3390659.9
1.3,3390467.9
1.31,3390297.9
1.32,3390140.3
1.33,3389981.2
1.34,3389818.4
1.35,3389658.8
1.36,3389486.1
1.37,3389332.5
1.38,3389187
1.39,3389044.9
1.4,3388919.4
1.41,3388777.4
1.42,3388628.2
1.43,3388489
1.44,3388352.5
1.45,3388230.1
1.46,3388084.1
1.47,3387934.7
1.48,3387806.2
1.49,3387661
1.5,3387511.8
1.51,3387376.399
1.52,3387229.701
1.53,3387085.1
1.54,3386941.4
1.55,3386785.3
1.56,3386638.6
1.57,3386502.3
1.58,3386355.9
1.59,3386216.2
1.6,3386071.8
1.61,3385912.6
1.62,3385770.4
1.63,3385620.3
1.64,3385469
1.65,3385307.9
1.66,3385144.4
1.67,3384993.4
1.68,3384813.9
1.69,3384650.3
1.7,3384503
1.71,3384333.4
1.72,3384178.301
1.73,3384012.6
1.74,3383832.6
1.75,3383661.1
1.76,3383480.699
1.77,3383301.901
1.78,3383128.7
1.79,3382941
1.8,3382752.3
1.81,3382583.9
1.82,3382395.3
1.83,3382188.4
1.84,3381984.8
1.85,3381779.1
1.86,3381586.4
1.87,3381388.2
1.88,3381199.9
1.89,3381010.4
1.9,3380793
1.91,3380580.1
1.92,3380378.8
1.93,3380174.4
1.94,3379938.8
1.95,3379710.9
1.96,3379485.2
1.97,3379257.6
1.98,3379017.4
1.99,3378764.8
2,3378530.7
2.01,3378318.399
2.02,3378077.301
2.03,3377829.7
2.04,3377547.6
2.05,3377306.1
2.06,3377051.6
2.07,3376824.3
2.08,3376568.3
2.09,3376351
2.1,3376098.1
2.11,3375845.6
2.12,3375565
2.13,3375325.3
2.14,3375046.1
2.15,3374756.8
2.16,3374445.7
2.17,3374118.4
2.18,3373829.4
2.19,3373527.6
2.2,3373220
2.21,3372923.7
2.22,3372561.6
2.23,3372190.7
2.24,3371851.4
2.25,3371521.2
2.26,3371189.299
2.27,3370853.101
2.28,3370515.7
2.29,3370213.8
2.3,3369852.8
2.31,3369515.7
2.32,3369165.2
2.33,3368801.099
2.34,3368451.5
2.35,3368065.4
2.36,3367655.2
2.37,3367267.9
2.38,3366868.5
2.39,3366490.3
2.4,3366104.2
2.41,3365696.8
2.42,3365280.8
2.43,3364857.3
2.44,3364436.1
2.45,3364004.2
2.46,3363588.2
2.47,3363179
2.48,3362757.4
2.49,3362337
2.5,3361912
2.51,3361502.099
2.52,3361030.201
2.53,3360594.8
2.54,3360131.9
2.55,3359695.1
2.56,3359260
2.57,3358781.6
2.58,3358329.6
2.59,3357878
2.6,3357421.6
2.61,3356961.5
2.62,3356499.2
2.63,3356007.7
2.64,3355507.3
2.65,3355049.6
2.66,3354577.2
2.67,3354121
2.68,3353634.3
2.69,3353145.2
2.7,3352662.6
2.71,3352205
2.72,3351732.7
2.73,3351278
2.74,3350765.7
2.75,3350305.001
2.76,3349820.799
2.77,3349338.5
2.78,3348829.7
2.79,3348356.5
2.8,3347875.4
2.81,3347368.4
2.82,3346870.8
2.83,3346389.2
2.84,3345881.9
2.85,3345413.9
2.86,3344954.2
2.87,3344458.6
2.88,3343983
2.89,3343494.2
2.9,3342959.4
2.91,3342451.8
2.92,3341938.5
2.93,3341465.1
2.94,3340964.8
2.95,3340507.2
2.96,3340030.9
2.97,3339542.501
2.98,3339026.5
2.99,3338504.6
3,3337949.6
3.01,3337497.199
3.02,3337002.3
3.03,3336504.7
3.04,3335999.7
3.05,3335505.5
3.06,3335008.2
3.07,3334542.2
3.08,3334058.4
3.09,3333557.6
3.1,3333050.3
3.11,3332532.9
3.12,3332017.7
3.13,3331492.4
3.14,3330966.2
3.15,3330446
3.16,3329957.9
3.17,3329438.6
3.18,3328926.6
3.19,3328427.9
3.2,3327951.3
3.21,3327477.2
3.22,3326965.2
3.23,3326485
3.24,3325960.5
3.25,3325450.8
3.26,3324966.899
3.27,3324449.8
3.28,3323941.6
3.29,3323482.7
3.3,3322977.6
3.31,3322474.7
3.32,3321939.6
3.33,3321469
3.34,3320964.2
3.35,3320451.2
3.36,3319903.2
3.37,3319328.6
3.38,3318823.8
3.39,3318337.7
3.4,3317798.6
3.41,3317295.5
3.42,3316786.6
3.43,3316276.2
3.44,3315783.5
3.45,3315287.8
3.46,3314741.5
3.47,3314187.6
3.48,3313668.9
3.49,3313146.4
3.5,3312604.2
3.51,3312075.999
3.52,3311541.1
3.53,3310982.3
3.54,3310426.5
3.55,3309877.6
3.56,3309351.1
3.57,3308831.8
3.58,3308282.8
3.59,3307730.6
3.6,3307180.5
3.61,3306608.6
3.62,3306074.5
3.63,3305567.9
3.64,3305043.3
3.65,3304470.5
3.66,3303945.3
3.67,3303373.3
3.68,3302822.7
3.69,3302253.5
3.7,3301679.6
3.71,3301132.7
3.72,3300555.1
3.73,3299991
3.74,3299448.1
3.75,3298847
3.76,3298252.499
3.77,3297679.4
3.78,3297098.7
3.79,3296453.2
3.8,3295849.2
3.81,3295247.4
3.82,3294638.4
3.83,3294016.1
3.84,3293463.9
3.85,3292881.2
3.86,3292288
3.87,3291672.6
3.88,3291031.2
3.89,3290367.2
3.9,3289753
3.91,3289127.2
3.92,3288453.1
3.93,3287824
3.94,3287184.099
3.95,3286485.3
3.96,3285804.3
3.97,3285143.801
3.98,3284512.6
3.99,3283846.6
4,3283202.7
4.01,3282524.699
4.02,3281828.8
4.03,3281201.9
4.04,3280556.6
4.05,3279891
4.06,3279213.1
4.07,3278523.3
4.08,3277826
4.09,3277130.8
4.1,3276479.5
4.11,3275808.7
4.12,3275124.3
4.13,3274426.2
4.14,3273798
4.15,3273107.9
4.16,3272422.6
4.17,3271724.9
4.18,3271001.1
4.19,3270280.699
4.2,3269571.9
4.21,3268906.301
4.22,3268200.5
4.23,3267548.8
4.24,3266848.6
4.25,3266162.4
4.26,3265516.499
4.27,3264863.3
4.28,3264229.8
4.29,3263537.6
4.3,3262892.2
4.31,3262214.5
4.32,3261592.6
4.33,3260894.6
4.34,3260254.4
4.35,3259590
4.36,3258915.3
4.37,3258290
4.38,3257613.6
4.39,3256930.1
4.4,3256257.1
4.41,3255574.2
4.42,3254913.5
4.43,3254227.7
4.44,3253588.999
4.45,3252913
4.46,3252209.001
4.47,3251550.5
4.48,3250854.7
4.49,3250167.2
4.5,3249474.2
4.51,3248774.299
4.52,3248088
4.53,3247422.7
4.54,3246738.8
4.55,3246011.5
4.56,3245331.4
4.57,3244644
4.58,3243894.9
4.59,3243170.9
4.6,3242431.7
4.61,3241690.1
4.62,3240975.7
4.63,3240238.5
4.64,3239558.6
4.65,3238892.9
4.66,3238140.299
4.67,3237444.9
4.68,3236819.5
4.69,3236124.4
4.7,3235461.2
4.71,3234754.9
4.72,3234056.401
4.73,3233336.9
4.74,3232624.9
4.75,3231893.1
4.76,3231214.099
4.77,3230497.1
4.78,3229759.1
4.79,3229067.3
4.8,3228407.2
4.81,3227710.9
4.82,3227052.3
4.83,3226351.4
4.84,3225634.7
4.85,3225008.6
4.86,3224358.5
4.87,3223670.7
4.88,3223011.6
4.89,3222379
4.9,3221626.5
4.91,3220910.3
4.92,3220234.5
4.93,3219598.6
4.94,3218951.6
4.95,3218290
4.96,3217663
4.97,3217053.8
4.98,3216417.2
4.99,3215807.8
5,3215165.7
5.01,3214512.799
5.02,3213912.2
5.03,3213271
5.04,3212607.1
5.05,3211966.7
5.06,3211351.2
5.07,3210705
5.08,3210050.4
5.09,3209439.7
5.1,3208835.2
5.11,3208187
5.12,3207569.5
5.13,3206940.9
5.14,3206313.8
5.15,3205706.6
5.16,3205074.7
5.17,3204475
5.18,3203855.4
5.19,3203182.599
5.2,3202583
5.21,3201922
5.22,3201323.301
5.23,3200731.6
5.24,3200123.5
5.25,3199478.3
5.26,3198892.799
5.27,3198241.2
5.28,3197611.9
5.29,3196981.3
5.3,3196377.8
5.31,3195745.5
5.32,3195071.8
5.33,3194414.8
5.34,3193705.5
5.35,3192932.4
5.36,3192202.3
5.37,3191487.4
5.38,3190768.4
5.39,3190040.2
5.4,3189332.4
5.41,3188613.5
5.42,3187846.3
5.43,3187160.4
5.44,3186426.399
5.45,3185712.3
5.46,3184966.3
5.47,3184221.101
5.48,3183459.8
5.49,3182701.2
5.5,3181945.9
5.51,3181166.299
5.52,3180419.3
5.53,3179641.2
5.54,3178925.801
5.55,3178189
5.56,3177429.4
5.57,3176669.4
5.58,3175933.4
5.59,3175256.8
5.6,3174567.1
5.61,3173913.3
5.62,3173274.999
5.63,3172621.7
5.64,3171934.6
5.65,3171231.6
5.66,3170530.8
5.67,3169799.3
5.68,3169138.7
5.69,3168432.899
5.7,3167686
5.71,3166984.3
5.72,3166288.501
5.73,3165575.9
5.74,3164898.2
5.75,3164204.801
5.76,3163498.099
5.77,3162807
5.78,3162106
5.79,3161376.101
5.8,3160613.5
5.81,3159886.6
5.82,3159150.5
5.83,3158426.5
5.84,3157729.1
5.85,3157041.8
5.86,3156364.6
5.87,3155743.5
5.88,3155105.9
5.89,3154487.1
5.9,3153874.5
5.91,3153223.3
5.92,3152563.1
5.93,3151949.1
5.94,3151294.6
5.95,3150734.2
5.96,3150140.3
5.97,3149497.801
5.98,3148897.3
5.99,3148302.7
6,3147674
6.01,3147061.799
6.02,3146386.6
6.03,3145687.2
6.04,3145026.901
6.05,3144419.6
6.06,3143822.1
6.07,3143178.7
6.08,3142504.1
6.09,3141871.2
6.1,3141218.2
6.11,3140621.2
6.12,3140020.7
6.13,3139424.8
6.14,3138799.2
6.15,3138134.8
6.16,3137455.5
6.17,3136782.8
6.18,3136092.9
6.19,3135440.9
6.2,3134789
6.21,3134134.5
6.22,3133466.101
6.23,3132818.9
6.24,3132153.6
6.25,3131517.901
6.26,3130876.199
6.27,3130198.8
6.28,3129489.199
6.29,3128806.201
6.3,3128097.4
6.31,3127441.8
6.32,3126756.1
6.33,3126107.4
6.34,3125414.9
6.35,3124750.7
6.36,3124007
6.37,3123320.6
6.38,3122627.701
6.39,3121953.2
6.4,3121267
6.41,3120590.3
6.42,3119955.4
6.43,3119244.5
6.44,3118578.999
6.45,3117881.9
6.46,3117199.3
6.47,3116538.601
6.48,3115819.2
6.49,3115170.2
6.5,3114445.5
6.51,3113804.199
6.52,3113116.9
6.53,3112445.1
6.54,3111799.501
6.55,3111191.3
6.56,3110496.2
6.57,3109824.5
6.58,3109164
6.59,3108485.7
6.6,3107852.5
6.61,3107187.1
6.62,3106536.3
6.63,3105820.201
6.64,3105150.2
6.65,3104468.1
6.66,3103751
6.67,3103044.8
6.68,3102370.4
6.69,3101701.999
6.7,3100944.9
6.71,3100220.8
6.72,3099485.601
6.73,3098769
6.74,3098023.2
6.75,3097232
6.76,3096508.399
6.77,3095740.3
6.78,3094991.7
6.79,3094208.301
6.8,3093423.5
6.81,3092665.2
6.82,3091922.3
6.83,3091146.7
6.84,3090397.5
6.85,3089652.7
6.86,3088919.001
6.87,3088146.7
6.88,3087410.9
6.89,3086640.1
6.9,3085865.2
6.91,3085083.3
6.92,3084325.5
6.93,3083585.8
6.94,3082813.799
6.95,3082000.3
6.96,3081257.4
6.97,3080419.801
6.98,3079594.5
6.99,3078787.3
7,3077982.8
7.01,3077166.999
7.02,3076369.6
7.03,3075557.7
7.04,3074747.501
7.05,3073964.2
7.06,3073178.1
7.07,3072397.5
7.08,3071574.8
7.09,3070753.9
7.1,3069956.9
7.11,3069168.6
7.12,3068350.1
7.13,3067574
7.14,3066765.2
7.15,3066022
7.16,3065232.9
7.17,3064407
7.18,3063566.6
7.19,3062799.4
7.2,3062008.2
7.21,3061230.3
7.22,3060440
7.23,3059637.6
7.24,3058850.3
7.25,3058037.8
7.26,3057193.999
7.27,3056361.9
7.28,3055512
7.29,3054622.9
7.3,3053744.7
7.31,3052878.9
7.32,3052024.5
7.33,3051100.5
7.34,3050313.7
7.35,3049481.5
7.36,3048668
7.37,3047864.8
7.38,3047081
7.39,3046302.7
7.4,3045497.2
7.41,3044691.6
7.42,3043885.8
7.43,3043084.2
7.44,3042265.6
7.45,3041380
7.46,3040548.3
7.47,3039674.7
7.48,3038794.1
7.49,3037869.4
7.5,3036935.2
7.51,3035991.699
7.52,3035103.4
7.53,3034240.1
7.54,3033401.2
7.55,3032487.9
7.56,3031589.2
7.57,3030677.5
7.58,3029783.3
7.59,3028934.7
7.6,3028058.4
7.61,3027217.4
7.62,3026412
7.63,3025625.4
7.64,3024743.7
7.65,3023886.6
7.66,3023010
7.67,3022073
7.68,3021215.3
7.69,3020279.2
7.7,3019348.8
7.71,3018416.2
7.72,3017507.7
7.73,3016649.6
7.74,3015758
7.75,3014890.1
7.76,3013984.7
7.77,3013096.2
7.78,3012219.8
7.79,3011377.8
7.8,3010492.8
7.81,3009652.8
7.82,3008797.9
7.83,3007976.7
7.84,3007109.6
7.85,3006262
7.86,3005413.7
7.87,3004519.5
7.88,3003718.5
7.89,3002802.8
7.9,3001905.3
7.91,3001045.6
7.92,3000205.1
7.93,2999314.7
7.94,2998433.5
7.95,2997550.8
7.96,2996670.5
7.97,2995766
7.98,2994888.1
7.99,2993969.2
8,2993127.5
8.01,2992217.3
8.02,2991340.1
8.03,2990467.4
8.04,2989537.2
8.05,2988632.3
8.06,2987728.5
8.07,2986846.9
8.08,2985952.4
8.09,2985055.5
8.1,2984186.9
8.11,2983334.5
8.12,2982392.1
8.13,2981460
8.14,2980516.3
8.15,2979584.7
8.16,2978627
8.17,2977676.3
8.18,2976767.3
8.19,2975829
8.2,2974907.5
8.21,2973980.8
8.22,2973037.9
8.23,2972134.1
8.24,2971188.4
8.25,2970250.801
8.26,2969308.3
8.27,2968353.4
8.28,2967410.5
8.29,2966475.7
8.3,2965546.8
8.31,2964546.9
8.32,2963581.4
8.33,2962605.3
8.34,2961651.1
8.35,2960649.5
8.36,2959662.1
8.37,2958706.7
8.38,2957741.6
8.39,2956704.3
8.4,2955719.9
8.41,2954721.8
8.42,2953659.4
8.43,2952568.3
8.44,2951477.8
8.45,2950412.4
8.46,2949313.7
8.47,2948187.2
8.48,2947102.6
8.49,2946038.2
8.5,2944977.1
8.51,2943910.399
8.52,2942833.3
8.53,2941751.8
8.54,2940650.9
8.55,2939546.4
8.56,2938329
8.57,2937199.9
8.58,2936115.9
8.59,2935083.8
8.6,2934023
8.61,2932958.1
8.62,2931941.2
8.63,2930932
8.64,2929840.1
8.65,2928829.7
8.66,2927759.7
8.67,2926722.7
8.68,2925715.8
8.69,2924694.3
8.7,2923626.9
8.71,2922558.3
8.72,2921459.4
8.73,2920325
8.74,2919230.3
8.75,2918010.8
8.76,2916850.899
8.77,2915702.3
8.78,2914468.6
8.79,2913313.9
8.8,2912179.2
8.81,2911041.4
8.82,2909907.5
8.83,2908720
8.84,2907580.4
8.85,2906421.4
8.86,2905282.5
8.87,2904099.3
8.88,2902935.4
8.89,2901812.9
8.9,2900607
8.91,2899482.7
8.92,2898301.9
8.93,2897116.6
8.94,2895880.1
8.95,2894727.5
8.96,2893505.9
8.97,2892280.7
8.98,2891078.7
8.99,2889919.9
9,2888752.8
9.01,2887540.999
9.02,2886347.7
9.03,2885155.1
9.04,2883992
9.05,2882780
9.06,2881552.3
9.07,2880378.7
9.08,2879178.6
9.09,2878007.4
9.1,2876789.4
9.11,2875512.5
9.12,2874239.6
9.13,2872968
9.14,2871753.2
9.15,2870511.7
9.16,2869308.7
9.17,2868112.9
9.18,2866865.4
9.19,2865690.6
9.2,2864495.7
9.21,2863338
9.22,2862187.5
9.23,2861044.8
9.24,2859934.9
9.25,2858880
9.26,2857802.8
9.27,2856750.9
9.28,2855633.3
9.29,2854553.4
9.3,2853477.5
9.31,2852362.8
9.32,2851281.8
9.33,2850246.4
9.34,2849163.8
9.35,2848111.3
9.36,2847038.9
9.37,2846013
9.38,2844965.4
9.39,2843904.4
9.4,2842890.5
9.41,2841863.5
9.42,2840772.5
9.43,2839703.5
9.44,2838636.3
9.45,2837573.1
9.46,2836470
9.47,2835418.5
9.48,2834416.9
9.49,2833384.9
9.5,2832365.3
9.51,2831287.7
9.52,2830222.7
9.53,2829139.9
9.54,2828110.2
9.55,2827032.9
9.56,2825928.7
9.57,2824837.6
9.58,2823600.7
9.59,2822475.2
9.6,2821291.5
9.61,2820215.2
9.62,2819072.3
9.63,2817894
9.64,2816740.5
9.65,2815489
9.66,2814191.9
9.67,2812929.3
9.68,2811626
9.69,2810326
9.7,2809046.6
9.71,2807767.7
9.72,2806537.5
9.73,2805271
9.74,2804017.8
9.75,2802802.4
9.76,2801554.7
9.77,2800276.4
9.78,2798983.6
9.79,2797581.6
9.8,2796123.8
9.81,2794592.8
9.82,2793112.7
9.83,2791608.9
9.84,2790168.2
9.85,2788575.3
9.86,2786922.8
9.87,2785321.9
9.88,2783772.5
9.89,2782283.1
9.9,2780761.3
9.91,2779184
9.92,2777584.5
9.93,2776067.4
9.94,2774553.2
9.95,2773006.7
9.96,2771342
9.97,2769694
9.98,2768092.8
9.99,2766461.5
10,2764760.1
10.01,2763101.5
10.02,2761452.4
10.03,2759895.6
10.04,2758343
10.05,2756801.5
10.06,2755200.9
10.07,2753549.5
10.08,2751841.1
10.09,2750330
10.1,2748774.6
10.11,2747338.5
10.12,2745781.4
10.13,2744200.6
10.14,2742559.8
10.15,2740813
10.16,2739043.4
10.17,2737406.1
10.18,2735825.5
10.19,2734296.5
10.2,2732699
10.21,2731115.2
10.22,2729591.5
10.23,2728020.9
10.24,2726451.5
10.25,2724891.8
10.26,2723376
10.27,2721910.7
10.28,2720483.4
10.29,2718958
10.3,2717512.7
10.31,2716070.3
10.32,2714698.5
10.33,2713196.4
10.34,2711710
10.35,2710241.4
10.36,2708772
10.37,2707316.7
10.38,2705842.1
10.39,2704341.6
10.4,2702802.9
10.41,2701287
10.42,2699852.7
10.43,2698447.6
10.44,2696953.4
10.45,2695481
10.46,2694029.3
10.47,2692611.7
10.48,2691185.8
10.49,2689670.6
10.5,2688111.9
10.51,2686540.8
10.52,2684995.5
10.53,2683413.9
10.54,2681846.2
10.55,2680307.5
10.56,2678795
10.57,2677234.4
10.58,2675638.8
10.59,2674037.3
10.6,2672311.4
10.61,2670633.6
10.62,2668772.5
10.63,2667164
10.64,2665700.1
10.65,2664267.2
10.66,2662937.4
10.67,2661561.5
10.68,2660281.1
10.69,2658896.5
10.7,2657562
10.71,2656241.8
10.72,2654891.1
10.73,2653524.4
10.74,2652149.9
10.75,2650783
10.76,2649460.8
10.77,2648225.5
10.78,2646874.7
10.79,2645504.1
10.8,2644222
10.81,2642896.9
10.82,2641586.9
10.83,2640361.6
10.84,2639050.4
10.85,2637706.8
10.86,2636451.5
10.87,2635314.1
10.88,2634135
10.89,2632989.2
10.9,2631860
10.91,2630736.1
10.92,2629624
10.93,2628553.3
10.94,2627513.2
10.95,2626465.1
10.96,2625405.6
10.97,2624337.4
10.98,2623290
10.99,2622283.7
11,2621249.9
11.01,2620219.7
11.02,2619219.5
11.03,2618231.3
11.04,2617214
11.05,2616192.4
11.06,2615204.8
11.07,2614174
11.08,2613216.3
11.09,2612193
11.1,2611227.7
11.11,2610226.6
11.12,2609238.6
11.13,2608248.5
11.14,2607225.4
11.15,2606227.2
11.16,2605209.9
11.17,2604237.1
11.18,2603220.7
11.19,2602198
11.2,2601283.2
11.21,2600281
11.22,2599248.5
11.23,2598274
11.24,2597231
11.25,2596206.4
11.26,2595169.1
11.27,2594154.3
11.28,2593141.4
11.29,2592101.3
11.3,2591049.7
11.31,2589987.4
11.32,2588907.2
11.33,2587879
11.34,2586764.1
11.35,2585719
11.36,2584637
11.37,2583544.9
11.38,2582479
11.39,2581372.1
11.4,2580307.2
11.41,2579205.7
11.42,2578142
11.43,2577078.2
11.44,2576035.3
11.45,2574985.5
11.46,2573967.8
11.47,2572989
11.48,2571956
11.49,2570953
11.5,2569989
11.51,2568966.7
11.52,2567915.4
11.53,2566859.1
11.54,2565853.7
11.55,2564831
11.56,2563784.4
11.57,2562747
11.58,2561808.5
11.59,2560792.5
11.6,2559764.9
11.61,2558763
11.62,2557780.6
11.63,2556777.7
11.64,2555863.2
11.65,2554909.5
11.66,2553994.4
11.67,2553007.7
11.68,2552048.5
11.69,2551116.5
11.7,2550168.4
11.71,2549206.3
11.72,2548174.7
11.73,2547236.5
11.74,2546308.7
11.75,2545368.5
11.76,2544421
11.77,2543446.5
11.78,2542503.4
11.79,2541520.5
11.8,2540584
11.81,2539631.5
11.82,2538642.4
11.83,2537630
11.84,2536599.3
11.85,2535637.5
11.86,2534637.7
11.87,2533703
11.88,2532686.5
11.89,2531709.9
11.9,2530684.5
11.91,2529730
11.92,2528711.9
11.93,2527715
11.94,2526643.1
11.95,2525663.1
11.96,2524645.5
11.97,2523652
11.98,2522602
11.99,2521640.1
12,2520600
12.01,2519555.8
12.02,2518500
12.03,2517428.5
12.04,2516390.4
12.05,2515301.3
12.06,2514231.3
12.07,2513151
12.08,2512098.9
12.09,2510973.5
12.1,2509853.5
12.11,2508758.2
12.12,2507637.5
12.13,2506499.3
12.14,2505404.3
12.15,2504282.5
12.16,2503097.8
12.17,2502025.2
12.18,2500891.8
12.19,2499812.8
12.2,2498690.8
12.21,2497583.5
12.22,2496496.1
12.23,2495321.7
12.24,2494192.7
12.25,2493073.2
12.26,2491962
12.27,2490783.7
12.28,2489663.7
12.29,2488518.2
12.3,2487299.4
12.31,2486173.4
12.32,2484982.6
12.33,2483766.5
12.34,2482535
12.35,2481296.6
12.36,2480050.1
12.37,2478770.1
12.38,2477525
12.39,2476276
12.4,2475021.3
12.41,2473737.2
12.42,2472461.1
12.43,2471197.2
12.44,2469947.9
12.45,2468710.1
12.46,2467445.9
12.47,2466173
12.48,2464870.5
12.49,2463607
12.5,2462261.5
12.51,2460927.1
12.52,2459552.8
12.53,2458230.8
12.54,2456939.5
12.55,2455594
12.56,2454254.9
12.57,2452978.1
12.58,2451651.7
12.59,2450379.7
12.6,2449149.5
12.61,2447937.7
12.62,2446678
12.63,2445505.4
12.64,2444318
12.65,2443096.3
12.66,2441925
12.67,2440656.2
12.68,2439419.7
12.69,2438235
12.7,2437002.9
12.71,2435797
12.72,2434588.9
12.73,2433372.5
12.74,2432166.7
12.75,2430984
12.76,2429782.5
12.77,2428564.2
12.78,2427348.5
12.79,2426098
12.8,2424890.6
12.81,2423616
12.82,2422360.9
12.83,2421075
12.84,2419815
12.85,2418555
12.86,2417292.6
12.87,2416013
12.88,2414725.2
12.89,2413432.5
12.9,2412201
12.91,2410938.4
12.92,2409647.5
12.93,2408406
12.94,2407084.1
12.95,2405834.3
12.96,2404484
12.97,2403148.5
12.98,2401832.3
12.99,2400402.2
13,2399029
13.01,2397635.5
13.02,2396192.2
13.03,2394757.6
13.04,2393417.1
13.05,2392074
13.06,2390727.8
13.07,2389352.6
13.08,2388041
13.09,2386714.5
13.1,2385385
13.11,2384059.5
13.12,2382785.8
13.13,2381482.8
13.14,2380039.5
13.15,2378686.1
13.16,2377356.8
13.17,2376024.5
13.18,2374717.4
13.19,2373428.9
13.2,2372147.7
13.21,2370863.5
13.22,2369594.5
13.23,2368291.5
13.24,2366970.5
13.25,2365673.5
13.26,2364344.3
13.27,2362973
13.28,2361612.5
13.29,2360257.1
13.3,2358964
